Hora de inicio de la toma de datos: 11:30:49
AT(s)	W	X	Y	Z
0.01	0.997283	-0.022836	-0.069154	-0.011072	
0.039	0.997232	-0.02234	-0.069921	-0.011824	
0.061	0.997129	-0.021751	-0.071383	-0.012856	
0.089	0.997072	-0.022063	-0.072045	-0.013032	
0.112	0.997071	-0.022301	-0.072073	-0.012558	
0.137	0.997113	-0.021657	-0.071667	-0.012693	
0.162	0.997158	-0.021147	-0.071074	-0.013328	
0.186	0.997201	-0.021072	-0.070393	-0.013821	
0.226	0.997143	-0.021495	-0.071014	-0.014158	
0.252	0.997012	-0.020843	-0.072895	-0.014789	
0.282	0.996949	-0.020355	-0.073857	-0.014962	
0.306	0.996949	-0.019961	-0.074031	-0.014637	
0.331	0.997027	-0.020767	-0.072988	-0.013348	
0.356	0.997202	-0.022938	-0.070471	-0.009796	
0.383	0.997481	-0.025658	-0.066068	-0.003071	
0.414	0.997744	-0.029349	-0.060132	0.005397	
0.438	0.99766	-0.038944	-0.052251	0.020676	
0.464	0.996967	-0.049055	-0.044977	0.040336	
0.501	0.994047	-0.065525	-0.036409	0.079061	
0.533	0.989783	-0.076859	-0.032522	0.11561	
0.576	0.984971	-0.086538	-0.024559	0.147444	
0.601	0.979529	-0.100363	-0.017132	0.173657	
0.633	0.976615	-0.105859	-0.007789	0.186964	
0.658	0.973205	-0.110414	0.007488	0.201554	
0.702	0.969233	-0.119414	0.022645	0.214045	
0.731	0.966959	-0.121359	0.029967	0.222181	
0.759	0.965138	-0.117906	0.035448	0.230979	
0.783	0.962346	-0.121843	0.039547	0.23975	
0.814	0.960443	-0.123287	0.042675	0.246025	
0.837	0.959008	-0.119136	0.047686	0.25266	
0.876	0.957107	-0.123503	0.048166	0.257629	
0.908	0.956152	-0.123734	0.04836	0.261006	
0.932	0.955338	-0.120602	0.049001	0.265299	
0.956	0.954295	-0.122143	0.049813	0.268182	
0.981	0.953459	-0.1274	0.048531	0.268941	
1.007	0.953863	-0.125526	0.047169	0.268635	
1.039	0.954479	-0.123188	0.045929	0.267742	
1.063	0.95477	-0.123394	0.045085	0.266752	
1.086	0.954956	-0.125	0.045226	0.26531	
1.127	0.956749	-0.123591	0.044247	0.259612	
1.158	0.959155	-0.121471	0.042051	0.251989	
1.201	0.962677	-0.114479	0.041872	0.241651	
1.234	0.965633	-0.107179	0.041302	0.233154	
1.258	0.968697	-0.107219	0.038373	0.220585	
1.288	0.970055	-0.112529	0.039408	0.211608	
1.325	0.971552	-0.112511	0.043029	0.203902	
1.352	0.973817	-0.108918	0.043147	0.194823	
1.375	0.976385	-0.110056	0.041227	0.181273	
1.405	0.978	-0.110373	0.044696	0.171277	
1.433	0.981287	-0.101702	0.047084	0.156574	
1.464	0.98413	-0.101776	0.041543	0.139301	
1.501	0.986323	-0.104851	0.040438	0.120577	
1.525	0.990695	-0.089836	0.043221	0.092658	
1.557	0.993497	-0.0799	0.036108	0.072631	
1.584	0.995329	-0.075432	0.031138	0.05158	
1.613	0.996329	-0.069993	0.032117	0.037395	
1.637	0.997266	-0.061233	0.03432	0.023078	
1.664	0.997889	-0.055011	0.03289	0.010458	
1.688	0.998021	-0.055037	0.030013	-0.005023	
1.714	0.997938	-0.05409	0.029892	-0.017309	
1.739	0.997874	-0.050742	0.030069	-0.027735	
1.761	0.997525	-0.048714	0.029313	-0.041367	
1.788	0.996574	-0.046975	0.030643	-0.060791	
1.825	0.994708	-0.044617	0.029361	-0.087772	
1.853	0.991049	-0.037776	0.016662	-0.126951	
1.882	0.9867	-0.035884	0.008417	-0.158316	
1.909	0.982289	-0.033495	0.001456	-0.184348	
1.938	0.978987	-0.028598	-0.004848	-0.20185	
1.963	0.975417	-0.023817	-0.011731	-0.218764	
1.987	0.97221	-0.021909	-0.018542	-0.232344	
2.011	0.969216	-0.025044	-0.023611	-0.243793	
2.036	0.966458	-0.029582	-0.030079	-0.253335	
2.063	0.963787	-0.032392	-0.037944	-0.261964	
2.101	0.961976	-0.035406	-0.042429	-0.267486	
2.125	0.961009	-0.038822	-0.044924	-0.270069	
2.152	0.959797	-0.036976	-0.051244	-0.27349	
2.183	0.959328	-0.037891	-0.052558	-0.274759	
2.208	0.959157	-0.040179	-0.053216	-0.274902	
2.231	0.959214	-0.040782	-0.055516	-0.274158	
2.257	0.959157	-0.041378	-0.057708	-0.273815	
2.284	0.959267	-0.041469	-0.058368	-0.273278	
2.309	0.959634	-0.039378	-0.058847	-0.272193	
2.335	0.959778	-0.038403	-0.056783	-0.272264	
2.364	0.960198	-0.039122	-0.05485	-0.271075	
2.39	0.961086	-0.040613	-0.053257	-0.268009	
2.414	0.962377	-0.039536	-0.05401	-0.263346	
2.437	0.964738	-0.037865	-0.055731	-0.254442	
2.464	0.967767	-0.038706	-0.056244	-0.242415	
2.491	0.971783	-0.042162	-0.056408	-0.225119	
2.511	0.977183	-0.04885	-0.056581	-0.198812	
2.55	0.982666	-0.053204	-0.060949	-0.166799	
2.575	0.986869	-0.049221	-0.060868	-0.141288	
2.602	0.991875	-0.037733	-0.054596	-0.108537	
2.632	0.994523	-0.039136	-0.05295	-0.08117	
2.659	0.996581	-0.043496	-0.05211	-0.0471	
2.681	0.997434	-0.051436	-0.048336	-0.011983	
2.708	0.996118	-0.075194	-0.043192	0.015117	
2.753	0.993081	-0.089987	-0.0338	0.067451	
2.783	0.989854	-0.091627	-0.030388	0.104264	
2.814	0.986316	-0.095572	-0.027798	0.131431	
2.84	0.982737	-0.099933	-0.018602	0.154583	
2.863	0.978961	-0.105767	-0.006807	0.174363	
2.888	0.975862	-0.109299	0.000914	0.189064	
2.912	0.973163	-0.111836	0.009052	0.200912	
2.937	0.970304	-0.116103	0.013452	0.211778	
2.963	0.96758	-0.118424	0.017161	0.22242	
2.986	0.963453	-0.124967	0.026045	0.235505	
3.013	0.959623	-0.13239	0.034488	0.24578	
3.037	0.957154	-0.133878	0.042071	0.253305	
3.064	0.955257	-0.134805	0.046215	0.259185	
3.086	0.953895	-0.135786	0.049556	0.26304	
3.111	0.952913	-0.137012	0.050711	0.26573	
3.139	0.952296	-0.135307	0.050603	0.268819	
3.163	0.951455	-0.135947	0.051522	0.271289	
3.19	0.950679	-0.137455	0.051303	0.273284	
3.212	0.950338	-0.134122	0.050299	0.276294	
3.251	0.949754	-0.133684	0.050358	0.278497	
3.282	0.949166	-0.135706	0.050225	0.279544	
3.308	0.949484	-0.134267	0.049066	0.279364	
3.34	0.950057	-0.133781	0.047463	0.277925	
3.365	0.950238	-0.136101	0.046176	0.276392	
3.389	0.95063	-0.135977	0.04562	0.275193	
3.416	0.951353	-0.134504	0.044509	0.273595	
3.436	0.952103	-0.133683	0.043342	0.271568	
3.457	0.95322	-0.13293	0.041769	0.268248	
3.483	0.954742	-0.131721	0.039154	0.263789	
3.509	0.956782	-0.126851	0.036021	0.259192	
3.532	0.959392	-0.121001	0.033435	0.252601	
3.558	0.961874	-0.118519	0.030934	0.244528	
3.584	0.963888	-0.116489	0.029465	0.237658	
3.608	0.96606	-0.111192	0.031909	0.23097	
3.638	0.967651	-0.106353	0.039129	0.225408	
3.665	0.969178	-0.105887	0.045989	0.21764	
3.687	0.970814	-0.110225	0.048736	0.207353	
3.713	0.9735	-0.114794	0.051189	0.191051	
3.752	0.979925	-0.103682	0.054786	0.161232	
3.784	0.983196	-0.101981	0.053789	0.141539	
3.808	0.986833	-0.104639	0.056582	0.109593	
3.852	0.992251	-0.095202	0.055558	0.057334	
3.881	0.9952	-0.083444	0.046704	0.020825	
3.913	0.996029	-0.07603	0.045817	-0.006836	
3.95	0.996167	-0.067645	0.047991	-0.027784	
3.975	0.995997	-0.059433	0.040829	-0.052825	
4	0.994568	-0.057814	0.034905	-0.079203	
4.026	0.991944	-0.060417	0.037984	-0.104667	
4.051	0.988587	-0.061824	0.043651	-0.130265	
4.075	0.984626	-0.061093	0.04408	-0.157598	
4.1	0.980482	-0.059301	0.037079	-0.183751	
4.126	0.977348	-0.056997	0.029239	-0.20171	
4.151	0.973092	-0.04824	0.011387	-0.225023	
4.182	0.969998	-0.046607	6.9e-05	-0.238604	
4.207	0.967552	-0.043858	-0.0113	-0.24858	
4.232	0.965483	-0.032101	-0.028868	-0.256865	
4.257	0.961968	-0.022347	-0.046878	-0.268181	
4.302	0.960261	-0.017369	-0.053621	-0.273355	
4.327	0.959752	-0.020325	-0.055198	-0.274622	
4.36	0.959889	-0.023673	-0.055123	-0.273888	
4.382	0.95996	-0.023523	-0.055865	-0.273499	
4.426	0.960038	-0.023333	-0.054411	-0.273537	
4.453	0.960472	-0.027542	-0.050421	-0.272384	
4.483	0.960808	-0.028841	-0.049123	-0.271298	
4.508	0.960856	-0.029958	-0.048432	-0.271132	
4.533	0.96076	-0.031659	-0.048751	-0.271221	
4.558	0.960673	-0.031528	-0.049615	-0.271388	
4.582	0.960628	-0.030243	-0.049468	-0.271722	
4.609	0.960867	-0.030757	-0.048269	-0.271032	
4.631	0.961584	-0.032306	-0.047116	-0.268501	
4.661	0.962232	-0.031592	-0.047076	-0.266262	
4.701	0.963417	-0.030525	-0.046562	-0.262161	
4.725	0.965927	-0.031209	-0.045369	-0.252887	
4.751	0.971061	-0.038238	-0.04134	-0.232097	
4.782	0.974937	-0.042395	-0.036675	-0.215302	
4.808	0.979831	-0.041756	-0.030317	-0.193049	
4.833	0.985943	-0.035808	-0.020641	-0.161892	
4.86	0.992158	-0.025887	-0.008513	-0.121987	
4.888	0.99554	-0.023582	-0.001877	-0.091326	
4.911	0.998544	-0.031762	0.004514	-0.043368	
4.939	0.998727	-0.049831	0.004829	0.006245	
4.964	0.995749	-0.067686	0.001006	0.062463	
5.001	0.987562	-0.083623	-0.00136	0.133145	
5.032	0.981485	-0.091842	-0.000593	0.168083	
5.057	0.976988	-0.097969	0.009899	0.189207	
5.084	0.973546	-0.102799	0.019183	0.203159	
5.106	0.969501	-0.10418	0.027376	0.220149	
5.132	0.964678	-0.105585	0.033481	0.239012	
5.175	0.96072	-0.109039	0.037965	0.252362	
5.2	0.958151	-0.106359	0.040114	0.262725	
5.226	0.954862	-0.102295	0.047774	0.274757	
5.25	0.9501	-0.105861	0.060112	0.287211	
5.282	0.946239	-0.104901	0.069344	0.298026	
5.308	0.943024	-0.104671	0.074487	0.306922	
5.34	0.940533	-0.103247	0.078558	0.313953	
5.375	0.936597	-0.102802	0.086255	0.323693	
5.406	0.934471	-0.105053	0.087662	0.328699	
5.432	0.933717	-0.104741	0.087405	0.331002	
5.456	0.933063	-0.099055	0.089546	0.334009	
5.483	0.931694	-0.100581	0.093104	0.336396	
5.512	0.931141	-0.104593	0.09367	0.336546	
5.536	0.932052	-0.100951	0.093056	0.335304	
5.576	0.932644	-0.101634	0.092615	0.33357	
5.6	0.932692	-0.103872	0.091753	0.332983	
5.625	0.933681	-0.101819	0.08947	0.331462	
5.65	0.935712	-0.098866	0.085012	0.327782	
5.676	0.938231	-0.099457	0.078953	0.321865	
5.702	0.941538	-0.102039	0.069843	0.313396	
5.725	0.945455	-0.099676	0.062349	0.303797	
5.75	0.949714	-0.094104	0.055935	0.29336	
5.775	0.953153	-0.091938	0.05238	0.283378	
5.8	0.956418	-0.092644	0.048818	0.272579	
5.826	0.962464	-0.086036	0.042131	0.253939	
5.857	0.965299	-0.082502	0.039739	0.244566	
5.884	0.967091	-0.083874	0.04318	0.236295	
5.908	0.968621	-0.08526	0.048529	0.22836	
5.931	0.971435	-0.085107	0.053163	0.215045	
5.958	0.974299	-0.088018	0.05326	0.200394	
5.987	0.977264	-0.091135	0.056184	0.183012	
6.027	0.983063	-0.081934	0.057717	0.153435	
6.058	0.986416	-0.079471	0.055098	0.132789	
6.088	0.989597	-0.073018	0.053481	0.11183	
6.112	0.993367	-0.061731	0.048014	0.084292	
6.138	0.995559	-0.056224	0.041333	0.06319	
6.161	0.997375	-0.047401	0.033519	0.043277	
6.188	0.998513	-0.039469	0.025611	0.027552	
6.215	0.999144	-0.033957	0.017245	0.016155	
6.236	0.999651	-0.02529	0.006528	0.004033	
6.264	0.999749	-0.02138	-0.004225	-0.0053	
6.287	0.999706	-0.019077	-0.011766	-0.009259	
6.312	0.999688	-0.021204	-0.01222	-0.005036	
6.338	0.999668	-0.024382	-0.008348	-0.000826	
6.375	0.999563	-0.029137	-0.004605	-0.001733	
6.401	0.99946	-0.032834	-0.000675	-0.001391	
6.427	0.999269	-0.037339	0.007087	0.004034	
6.457	0.999161	-0.03957	0.009342	0.004859	
6.483	0.999111	-0.04081	0.009511	0.004698	
6.515	0.999117	-0.040712	0.008738	0.005658	
6.536	0.999152	-0.040174	0.007284	0.0053	
6.575	0.999193	-0.039649	0.005383	0.00362	
6.602	0.999169	-0.040411	0.004724	0.002537	
6.625	0.999121	-0.041475	0.005389	0.002979	
6.651	0.999059	-0.042749	0.006728	0.002899	
6.675	0.998983	-0.044391	0.007504	0.002437	
6.7	0.998932	-0.045339	0.008548	0.002486	
6.725	0.998879	-0.046406	0.009011	0.002367	
6.751	0.998798	-0.048173	0.008888	0.001949	
6.776	0.998835	-0.047618	0.007358	0.002647	
6.807	0.99887	-0.046934	0.007077	0.002593	
6.833	0.998856	-0.04723	0.007182	0.001935	
6.861	0.998841	-0.047489	0.007582	0.001821	
6.887	0.998876	-0.046601	0.008354	0.002452	
6.926	0.998863	-0.046526	0.009968	0.002969	
6.958	0.998826	-0.047164	0.010573	0.003193	
6.989	0.998821	-0.04724	0.01059	0.00362	
7.01	0.998853	-0.046561	0.010264	0.004301	
7.051	0.998815	-0.047483	0.009343	0.005225	
7.082	0.998801	-0.047614	0.009779	0.005785	
